k,p(k)
0,0.3946422286175878
1,0.42862400846229143
2,0.45407113377908
3,0.4813549619255869
4,0.5092901914294992
5,0.5398394194552195
6,0.5693724767664127
7,0.5914097285417723
8,0.6137641786242468
9,0.6360007473786218
10,0.6549844409719993
11,0.6779724834762564
12,0.7068463211417325
13,0.7297979468992609
14,0.7561575361725552
15,0.778535741001107
16,0.7944039136538501
17,0.821524284467971
18,0.8455859128048067
19,0.8669230543161223
20,0.8905510853622128
