k,p(k)
0,0.7787995165054659
1,0.7931260546518935
2,0.8033432727747117
3,0.8125305293628133
4,0.8203747575341183
5,0.8265938009282424
6,0.8317042363917218
7,0.8356924967055395
8,0.8388215599253621
9,0.8411550154233631
10,0.8429672514581737
11,0.844024434204623
12,0.8446566981527308
13,0.845040781101363
14,0.8450631887949779
15,0.8448950988459579
16,0.8446679950658023
17,0.8443168055325736
18,0.8438748144997705
19,0.8435018485020637
20,0.8431639301450741
