k,p(k)
0,0.5643934467712598
1,0.5903070078070107
2,0.611527620936678
3,0.631576017427944
4,0.6503911457688003
5,0.6668562160445454
6,0.6791848466444279
7,0.687680857386597
8,0.6927241898292978
9,0.6953031656368012
10,0.695888062124534
11,0.6952369493408588
12,0.6931748921265461
13,0.6903307842666615
14,0.6869718176544726
15,0.683822287062763
16,0.6808971157158842
17,0.6781723905207242
18,0.676776572949495
19,0.675564302808493
20,0.675143431506549
