k,p(k)
0,0.6343480494504262
1,0.6699256603762683
2,0.6989160895847919
3,0.7218725566157519
4,0.7412646474439023
5,0.7556744316120747
6,0.7649126263736039
7,0.7703960793286555
8,0.7734501914866967
9,0.7752429525659295
10,0.7757542606646715
11,0.7756096704597778
12,0.7749178836690791
13,0.7734567815968296
14,0.7715328189724777
15,0.7693832861369551
16,0.7672106912001254
17,0.7652261773009515
18,0.7634063834035049
19,0.7619606870614551
20,0.7607520259639408
