k,p(k)
0,0.5725401114362225
1,0.5918819407441859
2,0.6216415795022197
3,0.6472439822467334
4,0.6774647798319978
5,0.6977630773449731
6,0.7158830470737773
7,0.7245145886500843
8,0.7495387877747841
9,0.7669284296924882
10,0.7907241981314648
11,0.8067316005000797
12,0.8237831405639543
13,0.8348985889860469
14,0.8528282836950052
15,0.866372926444395
16,0.8776139779955217
17,0.8880311893841453
18,0.9021960269895571
19,0.9120348190130629
20,0.9287464975918259
