k,p(k)
0,0.6156141620598041
1,0.6650517520656223
2,0.7063585618608542
3,0.7395645786728241
4,0.7697583829318566
5,0.790370408314807
6,0.8184262776472003
7,0.8333034653274519
8,0.8465413680508403
9,0.8602316808704313
10,0.8697830086988206
11,0.8756563999091032
12,0.8840166026699621
13,0.891527405178778
14,0.8961606284309989
15,0.9048265794961641
16,0.9138537966949971
17,0.9202708498053056
18,0.923596923497575
19,0.9295843232553632
20,0.938282544500863
